Wavelength (nm)	H07 abs N
220.00	0.66095
220.25	0.65521
220.50	0.64809
220.75	0.63728
221.00	0.62720
221.25	0.61511
221.50	0.60433
221.75	0.59432
222.00	0.58147
222.25	0.56921
222.50	0.55951
222.75	0.54625
223.00	0.53106
223.25	0.51998
223.50	0.51009
223.75	0.49667
224.00	0.48587
224.25	0.47374
224.50	0.46378
224.75	0.45079
225.00	0.44051
225.25	0.42786
225.50	0.41823
225.75	0.40773
226.00	0.39804
226.25	0.38595
226.50	0.37993
226.75	0.37052
227.00	0.36420
227.25	0.35321
227.50	0.34655
227.75	0.33763
228.00	0.33048
228.25	0.32410
228.50	0.32024
228.75	0.31332
229.00	0.30507
229.25	0.29925
229.50	0.29554
229.75	0.29033
230.00	0.28385
230.25	0.27995
230.50	0.27548
230.75	0.27077
231.00	0.26612
231.25	0.26316
231.50	0.26044
231.75	0.25418
232.00	0.25093
232.25	0.25217
232.50	0.24784
232.75	0.24539
233.00	0.24257
233.25	0.23988
233.50	0.23787
233.75	0.23749
234.00	0.23597
234.25	0.23673
234.50	0.23388
234.75	0.22956
235.00	0.22737
235.25	0.22519
235.50	0.22403
235.75	0.22118
236.00	0.22121
236.25	0.21959
236.50	0.21684
236.75	0.21355
237.00	0.21396
237.25	0.21109
237.50	0.20978
237.75	0.20659
238.00	0.20273
238.25	0.20331
238.50	0.20304
238.75	0.20009
239.00	0.19813
239.25	0.19857
239.50	0.19699
239.75	0.19601
240.00	0.19685
240.25	0.19392
240.50	0.19248
240.75	0.19305
241.00	0.19088
241.25	0.18757
241.50	0.18799
241.75	0.18749
242.00	0.18718
242.25	0.18270
242.50	0.18116
242.75	0.17897
243.00	0.17834
243.25	0.17760
243.50	0.17594
243.75	0.17289
244.00	0.17048
244.25	0.16802
244.50	0.16761
244.75	0.16619
245.00	0.16282
245.25	0.16156
245.50	0.15926
245.75	0.15640
246.00	0.15619
246.25	0.15407
246.50	0.15343
246.75	0.15144
247.00	0.15086
247.25	0.14864
247.50	0.14798
247.75	0.14749
248.00	0.14663
248.25	0.14562
248.50	0.14637
248.75	0.14530
249.00	0.14359
249.25	0.14356
249.50	0.14436
249.75	0.14531
250.00	0.14530
250.25	0.14378
250.50	0.14322
250.75	0.14390
251.00	0.14309
251.25	0.14234
251.50	0.14376
251.75	0.14374
252.00	0.14140
252.25	0.14204
252.50	0.14050
252.75	0.14093
253.00	0.14162
253.25	0.14039
253.50	0.13907
253.75	0.13921
254.00	0.13725
254.25	0.13750
254.50	0.13597
254.75	0.13659
255.00	0.13686
255.25	0.13577
255.50	0.13305
255.75	0.13263
256.00	0.13225
256.25	0.13253
256.50	0.13085
256.75	0.13111
257.00	0.13060
257.25	0.12923
257.50	0.12838
257.75	0.12835
258.00	0.12837
258.25	0.12807
258.50	0.12833
258.75	0.12712
259.00	0.12688
259.25	0.12828
259.50	0.12846
259.75	0.12918
260.00	0.12664
260.25	0.12649
260.50	0.12871
260.75	0.12871
261.00	0.12905
261.25	0.12929
261.50	0.13074
261.75	0.13042
262.00	0.13033
262.25	0.13183
262.50	0.13206
262.75	0.13179
263.00	0.13354
263.25	0.13288
263.50	0.13477
263.75	0.13459
264.00	0.13495
264.25	0.13587
264.50	0.13793
264.75	0.13760
265.00	0.13766
265.25	0.13903
265.50	0.13786
265.75	0.13962
266.00	0.13955
266.25	0.14067
266.50	0.14200
266.75	0.13995
267.00	0.14328
267.25	0.14432
267.50	0.14307
267.75	0.14433
268.00	0.14363
268.25	0.14607
268.50	0.14586
268.75	0.14682
269.00	0.14800
269.25	0.14896
269.50	0.14946
269.75	0.15146
270.00	0.15152
270.25	0.15390
270.50	0.15349
270.75	0.15444
271.00	0.15472
271.25	0.15634
271.50	0.15738
271.75	0.15689
272.00	0.15611
272.25	0.15841
272.50	0.15929
272.75	0.15944
273.00	0.16020
273.25	0.16144
273.50	0.16072
273.75	0.15974
274.00	0.16034
274.25	0.15949
274.50	0.16085
274.75	0.16094
275.00	0.15796
275.25	0.15732
275.50	0.15866
275.75	0.15623
276.00	0.15495
276.25	0.15597
276.50	0.15432
276.75	0.15297
277.00	0.15306
277.25	0.15277
277.50	0.15203
277.75	0.15181
278.00	0.15132
278.25	0.15197
278.50	0.15110
278.75	0.14990
279.00	0.14984
279.25	0.15268
279.50	0.15253
279.75	0.15437
280.00	0.15482
280.25	0.15378
280.50	0.15541
280.75	0.15677
281.00	0.15594
281.25	0.15702
281.50	0.15753
281.75	0.15987
282.00	0.15996
282.25	0.16011
282.50	0.16260
282.75	0.16264
283.00	0.16366
283.25	0.16489
283.50	0.16668
283.75	0.16640
284.00	0.16655
284.25	0.16868
284.50	0.16886
284.75	0.16940
285.00	0.16988
285.25	0.17117
285.50	0.17223
285.75	0.17389
286.00	0.17413
286.25	0.17442
286.50	0.17758
286.75	0.17719
287.00	0.17744
287.25	0.17768
287.50	0.17884
287.75	0.17929
288.00	0.17773
288.25	0.18011
288.50	0.18088
288.75	0.18052
289.00	0.18159
289.25	0.18246
289.50	0.18137
289.75	0.18323
290.00	0.18327
290.25	0.18150
290.50	0.18417
290.75	0.18180
291.00	0.18078
291.25	0.18155
291.50	0.18332
291.75	0.18149
292.00	0.18063
292.25	0.18102
292.50	0.18067
292.75	0.18086
293.00	0.17977
293.25	0.17850
293.50	0.17734
293.75	0.17793
294.00	0.17761
294.25	0.17572
294.50	0.17502
294.75	0.17505
295.00	0.17271
295.25	0.17220
295.50	0.17010
295.75	0.16957
296.00	0.16952
296.25	0.17001
296.50	0.16874
296.75	0.16512
297.00	0.16478
297.25	0.16353
297.50	0.16268
297.75	0.15892
298.00	0.15903
298.25	0.15632
298.50	0.15614
298.75	0.15298
299.00	0.15205
299.25	0.15112
299.50	0.14841
299.75	0.14835
300.00	0.14612
300.25	0.14662
300.50	0.14310
300.75	0.14389
301.00	0.14013
301.25	0.14001
301.50	0.13927
301.75	0.13769
302.00	0.13632
302.25	0.13386
302.50	0.13436
302.75	0.13302
303.00	0.13140
303.25	0.13074
303.50	0.12869
303.75	0.12901
304.00	0.12629
304.25	0.12670
304.50	0.12383
304.75	0.12562
305.00	0.12294
305.25	0.12214
305.50	0.12093
305.75	0.11950
306.00	0.11903
306.25	0.11847
306.50	0.11806
306.75	0.11731
307.00	0.11595
307.25	0.11429
307.50	0.11342
307.75	0.11483
308.00	0.11261
308.25	0.11117
308.50	0.11030
308.75	0.10986
309.00	0.10985
309.25	0.10977
309.50	0.11028
309.75	0.10906
310.00	0.11137
310.25	0.11487
310.50	0.11260
310.75	0.11165
311.00	0.11816
311.25	0.10946
311.50	0.10558
311.75	0.11054
312.00	0.10533
312.25	0.10155
312.50	0.11046
312.75	0.10949
313.00	0.10801
313.25	0.10610
313.50	0.10999
313.75	0.10667
314.00	0.10014
314.25	0.10653
314.50	0.10474
314.75	0.10164
315.00	0.10200
315.25	0.10207
315.50	0.10130
315.75	0.095427
316.00	0.097277
316.25	0.097277
316.50	0.092790
316.75	0.10008
317.00	0.097080
317.25	0.094888
317.50	0.094468
317.75	0.088251
318.00	0.087421
318.25	0.087387
318.50	0.085588
318.75	0.086162
319.00	0.087909
319.25	0.086898
319.50	0.085443
319.75	0.084312
320.00	0.089450
320.25	0.078344
320.50	0.081701
320.75	0.078592
321.00	0.080827
321.25	0.077924
321.50	0.072881
321.75	0.076940
322.00	0.077744
322.25	0.070868
322.50	0.066141
322.75	0.067460
323.00	0.069344
323.25	0.070226
323.50	0.069592
323.75	0.069044
324.00	0.069139
324.25	0.068077
324.50	0.067460
324.75	0.067383
325.00	0.069421
325.25	0.071228
325.50	0.065414
325.75	0.065396
326.00	0.063992
326.25	0.058649
326.50	0.064069
326.75	0.063042
327.00	0.063615
327.25	0.062280
327.50	0.062793
327.75	0.058315
328.00	0.054744
328.25	0.055104
328.50	0.056885
328.75	0.053605
329.00	0.052492
329.25	0.050779
329.50	0.049966
329.75	0.043989
330.00	0.042901
330.25	0.044400
330.50	0.051207
330.75	0.043963
331.00	0.039990
331.25	0.039724
331.50	0.031538
331.75	0.036496
332.00	0.038568
332.25	0.035734
332.50	0.033867
332.75	0.027950
333.00	0.030502
333.25	0.027830
333.50	0.024516
333.75	0.031915
334.00	0.025869
334.25	0.027265
334.50	0.022213
334.75	0.027650
335.00	0.021819
335.25	0.021690
335.50	0.022264
335.75	0.022547
336.00	0.020654
336.25	0.019841
336.50	0.022667
336.75	0.019327
337.00	0.021913
337.25	0.019344
337.50	0.016938
337.75	0.018942
338.00	0.017118
338.25	0.018865
338.50	0.015020
338.75	0.014797
339.00	0.014677
339.25	0.017726
339.50	0.017255
339.75	0.011971
340.00	0.012905
340.25	0.015902
340.50	0.015225
340.75	0.015799
341.00	0.012776
341.25	0.011475
341.50	0.010284
341.75	0.012228
342.00	0.013264
342.25	0.011363
342.50	0.011492
342.75	0.010361
343.00	0.015551
343.25	0.014412
343.50	0.010995
343.75	0.013487
344.00	0.014129
344.25	0.015182
344.50	0.012185
344.75	0.0081350
345.00	0.018813
345.25	0.010747
345.50	0.0077667
345.75	0.013692
346.00	0.012065
346.25	0.012262
346.50	0.015285
346.75	0.011680
347.00	0.012280
347.25	0.010447
347.50	0.011594
347.75	0.010096
348.00	0.013170
348.25	0.017657
348.50	0.011286
348.75	0.017340
349.00	0.011278
349.25	0.012571
349.50	0.018993
349.75	0.011440
350.00	0.013050
350.25	0.013924
350.50	0.013187
350.75	0.013033
351.00	0.015131
351.25	0.015499
351.50	0.015285
351.75	0.010147
352.00	0.015825
352.25	0.016809
352.50	0.012682
352.75	0.013084
353.00	0.017323
353.25	0.012999
353.50	0.014412
353.75	0.017272
354.00	0.014420
354.25	0.017623
354.50	0.017400
354.75	0.012417
355.00	0.015670
355.25	0.015602
355.50	0.016150
355.75	0.0098647
356.00	0.015516
356.25	0.019121
356.50	0.017023
356.75	0.016621
357.00	0.018051
357.25	0.023232
357.50	0.017272
357.75	0.018120
358.00	0.016176
358.25	0.015456
358.50	0.017666
358.75	0.017529
359.00	0.017109
359.25	0.019079
359.50	0.017186
359.75	0.018488
360.00	0.018299
360.25	0.020766
360.50	0.021947
360.75	0.017683
361.00	0.021776
361.25	0.019053
361.50	0.021177
361.75	0.022821
362.00	0.023583
362.25	0.022504
362.50	0.024054
362.75	0.025287
363.00	0.024970
363.25	0.023874
363.50	0.028104
363.75	0.024122
364.00	0.027017
364.25	0.026058
364.50	0.027368
364.75	0.025801
365.00	0.026794
365.25	0.029920
365.50	0.030605
365.75	0.029517
366.00	0.030784
366.25	0.028584
366.50	0.028678
366.75	0.032154
367.00	0.029945
367.25	0.031418
367.50	0.034407
367.75	0.032437
368.00	0.034681
368.25	0.034980
368.50	0.034595
368.75	0.035982
369.00	0.036736
369.25	0.036736
369.50	0.040760
369.75	0.038577
370.00	0.040546
370.25	0.041685
370.50	0.040007
370.75	0.040957
371.00	0.045427
371.25	0.042113
371.50	0.045213
371.75	0.043963
372.00	0.045239
372.25	0.047106
372.50	0.045616
372.75	0.047123
373.00	0.048844
373.25	0.052278
373.50	0.050214
373.75	0.053853
374.00	0.052757
374.25	0.052740
374.50	0.051927
374.75	0.050719
375.00	0.052655
375.25	0.055283
375.50	0.056508
375.75	0.057356
376.00	0.061175
376.25	0.062956
376.50	0.060207
376.75	0.063607
377.00	0.062057
377.25	0.064934
377.50	0.066801
377.75	0.067075
378.00	0.069310
378.25	0.065902
378.50	0.072555
378.75	0.071733
379.00	0.071305
379.25	0.074533
379.50	0.074782
379.75	0.076152
380.00	0.079132
380.25	0.078978
380.50	0.082369
380.75	0.083148
381.00	0.082214
381.25	0.082977
381.50	0.087018
381.75	0.086051
382.00	0.088166
382.25	0.090426
382.50	0.089613
382.75	0.093518
383.00	0.093980
383.25	0.097440
383.50	0.098990
383.75	0.097876
384.00	0.10204
384.25	0.10575
384.50	0.10205
384.75	0.10765
385.00	0.10860
385.25	0.10666
385.50	0.11355
385.75	0.11249
386.00	0.11588
386.25	0.11577
386.50	0.12063
386.75	0.12160
387.00	0.12255
387.25	0.12423
387.50	0.12692
387.75	0.12945
388.00	0.13061
388.25	0.13142
388.50	0.13325
388.75	0.13642
389.00	0.13878
389.25	0.13959
389.50	0.14291
389.75	0.14422
390.00	0.14695
390.25	0.14780
390.50	0.14532
390.75	0.15253
391.00	0.15376
391.25	0.15791
391.50	0.15593
391.75	0.16119
392.00	0.16519
392.25	0.16641
392.50	0.16625
392.75	0.17083
393.00	0.17255
393.25	0.17679
393.50	0.17872
393.75	0.18020
394.00	0.18333
394.25	0.18604
394.50	0.18799
394.75	0.18967
395.00	0.19109
395.25	0.19419
395.50	0.20087
395.75	0.20362
396.00	0.20647
396.25	0.20741
396.50	0.20933
396.75	0.21318
397.00	0.21435
397.25	0.21834
397.50	0.22161
397.75	0.22207
398.00	0.22639
398.25	0.22974
398.50	0.23553
398.75	0.23775
399.00	0.23855
399.25	0.24075
399.50	0.24415
399.75	0.24787
400.00	0.25009
400.25	0.25337
400.50	0.25575
400.75	0.25923
401.00	0.26007
401.25	0.26213
401.50	0.26755
401.75	0.27073
402.00	0.27234
402.25	0.27660
402.50	0.28072
402.75	0.28351
403.00	0.28602
403.25	0.29209
403.50	0.29303
403.75	0.29136
404.00	0.30051
404.25	0.30453
404.50	0.30476
404.75	0.30997
405.00	0.31237
405.25	0.31610
405.50	0.31979
405.75	0.32259
406.00	0.32760
406.25	0.33316
406.50	0.33446
406.75	0.33842
407.00	0.34305
407.25	0.34455
407.50	0.35189
407.75	0.35477
408.00	0.35710
408.25	0.35998
408.50	0.36513
408.75	0.36987
409.00	0.37078
409.25	0.37614
409.50	0.38171
409.75	0.38494
410.00	0.38937
410.25	0.39350
410.50	0.39482
410.75	0.39978
411.00	0.40557
411.25	0.40874
411.50	0.41444
411.75	0.41833
412.00	0.42018
412.25	0.42733
412.50	0.43098
412.75	0.43583
413.00	0.43639
413.25	0.44272
413.50	0.44613
413.75	0.45154
414.00	0.45445
414.25	0.46004
414.50	0.45962
414.75	0.46400
415.00	0.46577
415.25	0.47363
415.50	0.47525
415.75	0.48034
416.00	0.48333
416.25	0.49050
416.50	0.49461
416.75	0.49830
417.00	0.50345
417.25	0.50695
417.50	0.51370
417.75	0.51719
418.00	0.52148
418.25	0.52511
418.50	0.52791
418.75	0.53526
419.00	0.53980
419.25	0.54441
419.50	0.54744
419.75	0.55419
420.00	0.55572
420.25	0.56260
420.50	0.56932
420.75	0.57146
421.00	0.57750
421.25	0.57884
421.50	0.58571
421.75	0.59164
422.00	0.59535
422.25	0.59854
422.50	0.60470
422.75	0.60861
423.00	0.61422
423.25	0.62107
423.50	0.62701
423.75	0.63042
424.00	0.63409
424.25	0.64096
424.50	0.64270
424.75	0.64699
425.00	0.65308
425.25	0.65630
425.50	0.66517
425.75	0.66356
426.00	0.66878
426.25	0.67845
426.50	0.67937
426.75	0.68601
427.00	0.69180
427.25	0.69681
427.50	0.69824
427.75	0.70400
428.00	0.71167
428.25	0.71484
428.50	0.71989
428.75	0.72582
429.00	0.72913
429.25	0.73536
429.50	0.73972
429.75	0.74465
430.00	0.74834
430.25	0.75674
430.50	0.76075
430.75	0.76489
431.00	0.77276
431.25	0.77444
431.50	0.77794
431.75	0.78578
432.00	0.79019
432.25	0.79427
432.50	0.79854
432.75	0.80467
433.00	0.80785
433.25	0.81441
433.50	0.81536
433.75	0.82168
434.00	0.83013
434.25	0.83047
434.50	0.83692
434.75	0.84329
435.00	0.84565
435.25	0.85189
435.50	0.85647
435.75	0.85944
436.00	0.86970
436.25	0.87284
436.50	0.87681
436.75	0.87864
437.00	0.88587
437.25	0.89051
437.50	0.89145
437.75	0.89423
438.00	0.90013
438.25	0.90176
438.50	0.90575
438.75	0.90822
439.00	0.91183
439.25	0.91505
439.50	0.91880
439.75	0.92595
440.00	0.92551
440.25	0.92904
440.50	0.93382
440.75	0.93448
441.00	0.93820
441.25	0.93762
441.50	0.94433
441.75	0.94704
442.00	0.94867
442.25	0.94751
442.50	0.95169
442.75	0.95344
443.00	0.95681
443.25	0.96001
443.50	0.96112
443.75	0.96356
444.00	0.96523
444.25	0.96681
444.50	0.97019
444.75	0.97034
445.00	0.96863
445.25	0.97305
445.50	0.97347
445.75	0.97324
446.00	0.97480
446.25	0.97692
446.50	0.98177
446.75	0.98105
447.00	0.98432
447.25	0.98036
447.50	0.98171
447.75	0.98375
448.00	0.98414
448.25	0.98279
448.50	0.98644
448.75	0.98788
449.00	0.98704
449.25	0.98693
449.50	0.98853
449.75	0.99109
450.00	0.98974
450.25	0.99109
450.50	0.99148
450.75	0.98799
451.00	0.99260
451.25	0.98975
451.50	0.99110
451.75	0.99260
452.00	0.99592
452.25	0.99514
452.50	0.99390
452.75	0.99504
453.00	0.99539
453.25	0.99326
453.50	0.99306
453.75	0.99467
454.00	0.99547
454.25	0.99604
454.50	0.99581
454.75	0.99415
455.00	0.99827
455.25	0.99848
455.50	0.99869
455.75	0.99542
456.00	0.99879
456.25	0.99675
456.50	0.99949
456.75	0.99740
457.00	0.99730
457.25	0.99805
457.50	0.99815
457.75	0.99782
458.00	0.99597
458.25	0.99578
458.50	0.99568
458.75	0.99725
459.00	0.99626
459.25	1.0000
459.50	0.99789
459.75	0.99997
460.00	0.99419
460.25	0.99613
460.50	0.99645
460.75	0.99485
461.00	0.99526
461.25	0.99313
461.50	0.99353
461.75	0.99444
462.00	0.99116
462.25	0.99085
462.50	0.99111
462.75	0.98511
463.00	0.98510
463.25	0.98389
463.50	0.98379
463.75	0.98103
464.00	0.97911
464.25	0.97553
464.50	0.97255
464.75	0.97456
465.00	0.96657
465.25	0.96380
465.50	0.96356
465.75	0.96006
466.00	0.95549
466.25	0.95355
466.50	0.94816
466.75	0.94774
467.00	0.94216
467.25	0.93554
467.50	0.93425
467.75	0.92949
468.00	0.92458
468.25	0.92284
468.50	0.91518
468.75	0.91147
469.00	0.90379
469.25	0.89939
469.50	0.89343
469.75	0.88875
470.00	0.88109
470.25	0.87489
470.50	0.86835
470.75	0.86313
471.00	0.85448
471.25	0.85018
471.50	0.83972
471.75	0.83361
472.00	0.82749
472.25	0.81749
472.50	0.81070
472.75	0.80337
473.00	0.79664
473.25	0.78649
473.50	0.77854
473.75	0.77309
474.00	0.76196
474.25	0.75330
474.50	0.74832
474.75	0.73813
475.00	0.72843
475.25	0.71576
475.50	0.70687
475.75	0.69122
476.00	0.68264
476.25	0.67355
476.50	0.66175
476.75	0.65080
477.00	0.64338
477.25	0.63451
477.50	0.62488
477.75	0.61626
478.00	0.60279
478.25	0.59582
478.50	0.58554
478.75	0.57792
479.00	0.56522
479.25	0.55775
479.50	0.54882
479.75	0.53787
480.00	0.52859
480.25	0.51925
480.50	0.50947
480.75	0.50127
481.00	0.49026
481.25	0.48276
481.50	0.47127
481.75	0.46354
482.00	0.45181
482.25	0.44273
482.50	0.43488
482.75	0.42456
483.00	0.41570
483.25	0.40736
483.50	0.39925
483.75	0.38926
484.00	0.38222
484.25	0.37138
484.50	0.36345
484.75	0.35579
485.00	0.34546
485.25	0.33787
485.50	0.32935
485.75	0.32161
486.00	0.31380
486.25	0.30468
486.50	0.29595
486.75	0.28854
487.00	0.28260
487.25	0.27376
487.50	0.26778
487.75	0.25962
488.00	0.25200
488.25	0.24632
488.50	0.23817
488.75	0.23211
489.00	0.22390
489.25	0.21817
489.50	0.21104
489.75	0.20354
490.00	0.19812
490.25	0.19236
490.50	0.18820
490.75	0.17899
491.00	0.17383
491.25	0.16964
491.50	0.16424
491.75	0.15933
492.00	0.15392
492.25	0.14900
492.50	0.14120
492.75	0.13817
493.00	0.13496
493.25	0.13114
493.50	0.12599
493.75	0.12019
494.00	0.11624
494.25	0.11558
494.50	0.11191
494.75	0.10889
495.00	0.10470
495.25	0.10191
495.50	0.098219
495.75	0.095016
496.00	0.090829
496.25	0.088423
496.50	0.085391
496.75	0.083345
497.00	0.076571
497.25	0.075193
497.50	0.072067
497.75	0.068077
498.00	0.067280
498.25	0.064009
498.50	0.059925
498.75	0.058769
499.00	0.055206
499.25	0.054573
499.50	0.053048
499.75	0.050428
500.00	0.046857
500.25	0.044751
500.50	0.043364
500.75	0.041976
501.00	0.039613
501.25	0.040341
501.50	0.035922
501.75	0.035897
502.00	0.033268
502.25	0.031538
502.50	0.032206
502.75	0.031255
503.00	0.027411
503.25	0.028130
503.50	0.027325
503.75	0.024550
504.00	0.024276
504.25	0.022701
504.50	0.022786
504.75	0.019961
505.00	0.021605
505.25	0.018676
505.50	0.021005
505.75	0.017452
506.00	0.018060
506.25	0.017529
506.50	0.015225
506.75	0.017289
507.00	0.013290
507.25	0.013787
507.50	0.013787
507.75	0.012973
508.00	0.013710
508.25	0.012391
508.50	0.012297
508.75	0.0099589
509.00	0.010053
509.25	0.0092225
509.50	0.010104
509.75	0.0091711
510.00	0.010670
510.25	0.0092995
510.50	0.0064052
510.75	0.0086316
511.00	0.0076554
511.25	0.0074756
511.50	0.0065850
511.75	0.0067991
512.00	0.0045641
512.25	0.0052064
512.50	0.0062853
512.75	0.0069019
513.00	0.0058229
513.25	0.0066535
513.50	0.0047268
513.75	0.0053177
514.00	0.0041702
514.25	0.0056773
514.50	0.0042387
514.75	0.0037164
515.00	0.0037250
515.25	0.0042302
515.50	0.0037592
515.75	0.0030057
516.00	0.0028258
516.25	0.0050694
516.50	0.0010361
516.75	0.0025347
517.00	0.0041360
517.25	0.0035280
517.50	0.0032625
517.75	0.0023805
518.00	0.0032369
518.25	0.0028858
518.50	0.0029885
518.75	0.0025689
519.00	0.0037250
519.25	0.00033396
519.50	0.0027573
519.75	0.0017212
520.00	0.0027488
520.25	-0.00061654
520.50	0.00025689
520.75	0.0011903
521.00	0.00055660
521.25	0.00099332
521.50	5.9942e-05
521.75	0.0028686
522.00	0.00045384
522.25	0.0033396
522.50	0.0017297
522.75	0.00027402
523.00	0.0010704
523.25	0.0020295
523.50	0.0013787
523.75	-0.00014557
524.00	0.0015328
524.25	0.0041360
524.50	-4.2816e-05
