Wavelength (nm)	J19 abs N
280.00	0.25768
281.00	0.25466
282.00	0.25201
283.00	0.24944
284.00	0.24713
285.00	0.24451
286.00	0.24239
287.00	0.24030
288.00	0.23850
289.00	0.23702
290.00	0.23571
291.00	0.23472
292.00	0.23446
293.00	0.23467
294.00	0.23537
295.00	0.23679
296.00	0.23882
297.00	0.24154
298.00	0.24487
299.00	0.24877
300.00	0.25320
301.00	0.25808
302.00	0.26335
303.00	0.26892
304.00	0.27447
305.00	0.28017
306.00	0.28602
307.00	0.29207
308.00	0.29785
309.00	0.30340
310.00	0.30868
311.00	0.31375
312.00	0.31831
313.00	0.32270
314.00	0.32630
315.00	0.32984
316.00	0.33290
317.00	0.33530
318.00	0.33729
319.00	0.33905
320.00	0.34045
321.00	0.34085
322.00	0.34110
323.00	0.34065
324.00	0.33980
325.00	0.33850
326.00	0.33667
327.00	0.33443
328.00	0.33172
329.00	0.32848
330.00	0.32458
331.00	0.32067
332.00	0.31616
333.00	0.31151
334.00	0.30685
335.00	0.30198
336.00	0.29725
337.00	0.29223
338.00	0.28676
339.00	0.28176
340.00	0.27632
341.00	0.27085
342.00	0.26519
343.00	0.25948
344.00	0.25288
345.00	0.24611
346.00	0.23879
347.00	0.23125
348.00	0.22334
349.00	0.21482
350.00	0.20612
351.00	0.19725
352.00	0.18818
353.00	0.17923
354.00	0.17071
355.00	0.16232
356.00	0.15429
357.00	0.14737
358.00	0.14084
359.00	0.13448
360.00	0.12867
361.00	0.12342
362.00	0.11864
363.00	0.11417
364.00	0.11052
365.00	0.10736
366.00	0.10456
367.00	0.10209
368.00	0.10002
369.00	0.098368
370.00	0.096576
371.00	0.095724
372.00	0.094744
373.00	0.094289
374.00	0.093546
375.00	0.093039
376.00	0.092608
377.00	0.092430
378.00	0.092250
379.00	0.092368
380.00	0.092192
381.00	0.092183
382.00	0.092241
383.00	0.092256
384.00	0.092635
385.00	0.093046
386.00	0.092917
387.00	0.093439
388.00	0.093580
389.00	0.094018
390.00	0.094190
391.00	0.094258
392.00	0.094657
393.00	0.094946
394.00	0.095623
395.00	0.095610
396.00	0.096110
397.00	0.096086
398.00	0.096477
399.00	0.096545
400.00	0.096955
401.00	0.097012
402.00	0.097305
403.00	0.097748
404.00	0.097564
405.00	0.097511
406.00	0.097350
407.00	0.097685
408.00	0.097922
409.00	0.097494
410.00	0.097755
411.00	0.097186
412.00	0.097443
413.00	0.096986
414.00	0.096528
415.00	0.096257
416.00	0.096070
417.00	0.095591
418.00	0.095202
419.00	0.094851
420.00	0.094373
421.00	0.093690
422.00	0.093048
423.00	0.092587
424.00	0.092041
425.00	0.091320
426.00	0.090968
427.00	0.090364
428.00	0.089740
429.00	0.089436
430.00	0.088674
431.00	0.088216
432.00	0.088314
433.00	0.088051
434.00	0.087290
435.00	0.087242
436.00	0.086764
437.00	0.086428
438.00	0.086585
439.00	0.086465
440.00	0.086560
441.00	0.086546
442.00	0.086569
443.00	0.086774
444.00	0.086827
445.00	0.087266
446.00	0.087721
447.00	0.087751
448.00	0.088124
449.00	0.088688
450.00	0.089072
451.00	0.089907
452.00	0.090691
453.00	0.091388
454.00	0.092166
455.00	0.093134
456.00	0.093887
457.00	0.095038
458.00	0.095782
459.00	0.097303
460.00	0.097941
461.00	0.099651
462.00	0.10061
463.00	0.10236
464.00	0.10360
465.00	0.10493
466.00	0.10655
467.00	0.10841
468.00	0.11044
469.00	0.11197
470.00	0.11404
471.00	0.11557
472.00	0.11774
473.00	0.11982
474.00	0.12247
475.00	0.12432
476.00	0.12629
477.00	0.12874
478.00	0.13173
479.00	0.13430
480.00	0.13712
481.00	0.13990
482.00	0.14253
483.00	0.14563
484.00	0.14901
485.00	0.15325
486.00	0.15399
487.00	0.15725
488.00	0.16085
489.00	0.16431
490.00	0.16771
491.00	0.17094
492.00	0.17466
493.00	0.17799
494.00	0.18122
495.00	0.18480
496.00	0.18822
497.00	0.19183
498.00	0.19538
499.00	0.19916
500.00	0.20277
501.00	0.20623
502.00	0.21049
503.00	0.21418
504.00	0.21826
505.00	0.22212
506.00	0.22631
507.00	0.23039
508.00	0.23510
509.00	0.23939
510.00	0.24371
511.00	0.24845
512.00	0.25286
513.00	0.25766
514.00	0.26266
515.00	0.26856
516.00	0.27369
517.00	0.27899
518.00	0.28438
519.00	0.29007
520.00	0.29599
521.00	0.30203
522.00	0.30895
523.00	0.31517
524.00	0.32108
525.00	0.32828
526.00	0.33566
527.00	0.34273
528.00	0.34920
529.00	0.35675
530.00	0.36338
531.00	0.37137
532.00	0.37883
533.00	0.38643
534.00	0.39439
535.00	0.40276
536.00	0.41091
537.00	0.41911
538.00	0.42713
539.00	0.43569
540.00	0.44417
541.00	0.45323
542.00	0.46096
543.00	0.46947
544.00	0.47833
545.00	0.48671
546.00	0.49637
547.00	0.50580
548.00	0.51477
549.00	0.52351
550.00	0.53243
551.00	0.54203
552.00	0.55214
553.00	0.56014
554.00	0.57144
555.00	0.58084
556.00	0.59047
557.00	0.60031
558.00	0.61088
559.00	0.62079
560.00	0.63174
561.00	0.64168
562.00	0.65212
563.00	0.66242
564.00	0.67375
565.00	0.68472
566.00	0.69661
567.00	0.70754
568.00	0.71884
569.00	0.73043
570.00	0.74141
571.00	0.75334
572.00	0.76345
573.00	0.77537
574.00	0.78725
575.00	0.79745
576.00	0.80932
577.00	0.82106
578.00	0.83069
579.00	0.84163
580.00	0.85331
581.00	0.86469
582.00	0.87312
583.00	0.88236
584.00	0.89494
585.00	0.90326
586.00	0.91091
587.00	0.92137
588.00	0.92926
589.00	0.93648
590.00	0.94411
591.00	0.95133
592.00	0.95945
593.00	0.96501
594.00	0.96984
595.00	0.97461
596.00	0.97955
597.00	0.98374
598.00	0.98740
599.00	0.99145
600.00	0.99303
601.00	0.99554
602.00	0.99814
603.00	0.99910
604.00	0.99911
605.00	0.99985
606.00	1.0000
607.00	0.99995
608.00	0.99899
609.00	0.99795
610.00	0.99770
611.00	0.99575
612.00	0.99418
613.00	0.99260
614.00	0.99026
615.00	0.98822
616.00	0.98531
617.00	0.98262
618.00	0.97950
619.00	0.97631
620.00	0.97248
621.00	0.96864
622.00	0.96615
623.00	0.96131
624.00	0.95647
625.00	0.95357
626.00	0.94824
627.00	0.94334
628.00	0.93841
629.00	0.93189
630.00	0.92591
631.00	0.92019
632.00	0.91219
633.00	0.90361
634.00	0.89534
635.00	0.88694
636.00	0.87874
637.00	0.87055
638.00	0.86172
639.00	0.85303
640.00	0.84415
641.00	0.83379
642.00	0.82424
643.00	0.80893
644.00	0.79661
645.00	0.78442
646.00	0.77081
647.00	0.75689
648.00	0.74295
649.00	0.72754
650.00	0.71351
651.00	0.69616
652.00	0.68104
653.00	0.66393
654.00	0.64768
655.00	0.62727
656.00	0.61186
657.00	0.60582
658.00	0.58402
659.00	0.56410
660.00	0.54685
661.00	0.52857
662.00	0.51187
663.00	0.49505
664.00	0.47754
665.00	0.46019
666.00	0.44385
667.00	0.42719
668.00	0.41108
669.00	0.39518
670.00	0.37969
671.00	0.36480
672.00	0.34948
673.00	0.33476
674.00	0.32059
675.00	0.30685
676.00	0.29302
677.00	0.28012
678.00	0.26691
679.00	0.25458
680.00	0.24271
681.00	0.23115
682.00	0.21978
683.00	0.20901
684.00	0.19827
685.00	0.18836
686.00	0.17877
687.00	0.16970
688.00	0.16059
689.00	0.15182
690.00	0.14384
691.00	0.13628
692.00	0.12855
693.00	0.12126
694.00	0.11466
695.00	0.10802
696.00	0.10199
697.00	0.096198
698.00	0.090465
699.00	0.085270
700.00	0.080292
701.00	0.075510
702.00	0.070919
703.00	0.066575
704.00	0.062558
705.00	0.058601
706.00	0.055073
707.00	0.051679
708.00	0.048783
709.00	0.045762
710.00	0.043047
711.00	0.040157
712.00	0.037523
713.00	0.035292
714.00	0.032984
715.00	0.031024
716.00	0.029130
717.00	0.027209
718.00	0.025473
719.00	0.024114
720.00	0.022493
721.00	0.020877
722.00	0.019828
723.00	0.018689
724.00	0.017329
725.00	0.016179
726.00	0.015029
727.00	0.014263
728.00	0.013276
729.00	0.012575
730.00	0.011687
731.00	0.010946
732.00	0.010193
733.00	0.0096544
734.00	0.0090468
735.00	0.0084623
736.00	0.0081302
737.00	0.0077082
738.00	0.0070901
739.00	0.0068206
740.00	0.0063179
741.00	0.0058272
742.00	0.0058107
743.00	0.0054523
744.00	0.0047926
745.00	0.0049644
746.00	0.0043381
747.00	0.0043743
748.00	0.0043057
749.00	0.0039468
750.00	0.0037464
751.00	0.0033787
752.00	0.0032129
753.00	0.0031849
754.00	0.0030527
755.00	0.0028798
756.00	0.0025257
757.00	0.0025076
758.00	0.0023600
759.00	0.0020164
760.00	0.0022573
761.00	0.0021113
762.00	0.0018353
763.00	0.0021618
764.00	0.0018638
765.00	0.0018358
766.00	0.0016717
767.00	0.0014768
768.00	0.0016788
769.00	0.0015295
770.00	0.0015411
771.00	0.0015965
772.00	0.0013215
773.00	0.0011909
774.00	0.0011991
775.00	0.0013654
776.00	0.00098451
777.00	0.0011788
778.00	0.0012628
779.00	0.0012908
780.00	0.0012557
781.00	0.0011651
782.00	0.0010745
783.00	0.0010026
784.00	0.0010032
785.00	0.0010372
786.00	0.0010570
787.00	0.0010751
788.00	0.00083358
789.00	0.00069526
790.00	0.00077814
791.00	0.00089176
792.00	0.00081437
793.00	0.00092469
794.00	0.00083577
795.00	0.00095158
796.00	0.00063763
797.00	0.00073149
798.00	0.00064531
799.00	0.00068813
800.00	0.00089395
