Wavelength (nm)	O01 abs N
275.00	0.58422
275.25	0.56223
275.50	0.54447
275.75	0.52350
276.00	0.50342
276.25	0.48678
276.50	0.47148
276.75	0.45822
277.00	0.44615
277.25	0.43491
277.50	0.42392
277.75	0.41597
278.00	0.40482
278.25	0.39516
278.50	0.38734
278.75	0.38270
279.00	0.37203
279.25	0.36593
279.50	0.35988
279.75	0.35360
280.00	0.34865
280.25	0.34341
280.50	0.34147
280.75	0.33646
281.00	0.33236
281.25	0.32772
281.50	0.32650
281.75	0.32217
282.00	0.31821
282.25	0.31557
282.50	0.31652
282.75	0.31272
283.00	0.31032
283.25	0.30888
283.50	0.30629
283.75	0.30576
284.00	0.30201
284.25	0.30196
284.50	0.30133
284.75	0.30149
285.00	0.30173
285.25	0.30251
285.50	0.30179
285.75	0.30168
286.00	0.30089
286.25	0.30185
286.50	0.29964
286.75	0.29909
287.00	0.30148
287.25	0.30373
287.50	0.30293
287.75	0.30312
288.00	0.30531
288.25	0.30591
288.50	0.30763
288.75	0.31041
289.00	0.31148
289.25	0.31193
289.50	0.31408
289.75	0.31603
290.00	0.32075
290.25	0.32234
290.50	0.32364
290.75	0.32488
291.00	0.32839
291.25	0.32977
291.50	0.33339
291.75	0.33722
292.00	0.33830
292.25	0.34286
292.50	0.34483
292.75	0.34707
293.00	0.35034
293.25	0.35537
293.50	0.35685
293.75	0.36320
294.00	0.36469
294.25	0.36672
294.50	0.37175
294.75	0.37169
295.00	0.37376
295.25	0.37635
295.50	0.38017
295.75	0.38444
296.00	0.38664
296.25	0.39099
296.50	0.39542
296.75	0.40092
297.00	0.40340
297.25	0.40706
297.50	0.41333
297.75	0.41516
298.00	0.42102
298.25	0.42243
298.50	0.42685
298.75	0.43111
299.00	0.43632
299.25	0.44013
299.50	0.44371
299.75	0.44894
300.00	0.45190
300.25	0.45531
300.50	0.46350
300.75	0.46552
301.00	0.47085
301.25	0.47626
301.50	0.47974
301.75	0.48597
302.00	0.49237
302.25	0.49429
302.50	0.49888
302.75	0.50671
303.00	0.50772
303.25	0.51496
303.50	0.52154
303.75	0.52274
304.00	0.52952
304.25	0.53396
304.50	0.53775
304.75	0.54348
305.00	0.54637
305.25	0.55340
305.50	0.56038
305.75	0.56568
306.00	0.57225
306.25	0.57818
306.50	0.57868
306.75	0.58686
307.00	0.59233
307.25	0.59233
307.50	0.59958
307.75	0.60539
308.00	0.61120
308.25	0.61485
308.50	0.61920
308.75	0.62529
309.00	0.63123
309.25	0.63437
309.50	0.63807
309.75	0.62930
310.00	0.64008
310.25	0.63572
310.50	0.63858
310.75	0.65228
311.00	0.65258
311.25	0.65504
311.50	0.66898
311.75	0.65068
312.00	0.66297
312.25	0.68485
312.50	0.68432
312.75	0.68734
313.00	0.69191
313.25	0.69065
313.50	0.70394
313.75	0.70657
314.00	0.71005
314.25	0.71346
314.50	0.71380
314.75	0.72519
315.00	0.72161
315.25	0.72381
315.50	0.73504
315.75	0.74183
316.00	0.74302
316.25	0.75546
316.50	0.75573
316.75	0.74810
317.00	0.76222
317.25	0.77653
317.50	0.77026
317.75	0.76978
318.00	0.77780
318.25	0.78594
318.50	0.79120
318.75	0.79512
319.00	0.79426
319.25	0.79802
319.50	0.80248
319.75	0.80747
320.00	0.80535
320.25	0.80842
320.50	0.81868
320.75	0.82397
321.00	0.82309
321.25	0.83681
321.50	0.83377
321.75	0.83779
322.00	0.84192
322.25	0.85263
322.50	0.85131
322.75	0.85832
323.00	0.86486
323.25	0.86906
323.50	0.86318
323.75	0.86585
324.00	0.87554
324.25	0.87946
324.50	0.88748
324.75	0.88582
325.00	0.88052
325.25	0.89023
325.50	0.90171
325.75	0.89919
326.00	0.90590
326.25	0.90664
326.50	0.90790
326.75	0.92193
327.00	0.92274
327.25	0.91537
327.50	0.92169
327.75	0.92978
328.00	0.92221
328.25	0.94089
328.50	0.94703
328.75	0.94565
329.00	0.95196
329.25	0.94527
329.50	0.95035
329.75	0.95432
330.00	0.96935
330.25	0.96390
330.50	0.96993
330.75	0.97616
331.00	0.97915
331.25	0.97269
331.50	0.97998
331.75	0.97143
332.00	0.97631
332.25	0.97983
332.50	0.98718
332.75	0.97795
333.00	0.98615
333.25	0.98633
333.50	0.98004
333.75	0.98235
334.00	0.99683
334.25	0.99912
334.50	0.99722
334.75	0.99273
335.00	0.98462
335.25	0.99669
335.50	0.98924
335.75	0.99803
336.00	0.99316
336.25	0.99725
336.50	0.99597
336.75	0.99463
337.00	0.99536
337.25	0.99467
337.50	0.99656
337.75	0.99622
338.00	0.98837
338.25	0.99836
338.50	1.0000
338.75	0.99589
339.00	0.98802
339.25	0.99087
339.50	0.98899
339.75	0.98039
340.00	0.98229
340.25	0.99128
340.50	0.98386
340.75	0.98331
341.00	0.97913
341.25	0.97494
341.50	0.98065
341.75	0.97876
342.00	0.97574
342.25	0.97204
342.50	0.97019
342.75	0.97164
343.00	0.97361
343.25	0.96215
343.50	0.95971
343.75	0.95885
344.00	0.95838
344.25	0.94714
344.50	0.94435
344.75	0.94256
345.00	0.93989
345.25	0.94487
345.50	0.93913
345.75	0.93731
346.00	0.93164
346.25	0.93182
346.50	0.92304
346.75	0.92728
347.00	0.91298
347.25	0.91977
347.50	0.91334
347.75	0.90953
348.00	0.90696
348.25	0.89736
348.50	0.89917
348.75	0.89635
349.00	0.89483
349.25	0.88980
349.50	0.87404
349.75	0.87559
350.00	0.87137
350.25	0.86581
350.50	0.85549
350.75	0.85288
351.00	0.85393
351.25	0.85340
351.50	0.83877
351.75	0.84039
352.00	0.83311
352.25	0.83344
352.50	0.82870
352.75	0.82188
353.00	0.81820
353.25	0.81472
353.50	0.80675
353.75	0.80065
354.00	0.79782
354.25	0.79641
354.50	0.78706
354.75	0.78419
355.00	0.78114
355.25	0.77346
355.50	0.76606
355.75	0.75538
356.00	0.75132
356.25	0.74159
356.50	0.73707
356.75	0.73137
357.00	0.72968
357.25	0.71972
357.50	0.71725
357.75	0.71094
358.00	0.70057
358.25	0.70076
358.50	0.69551
358.75	0.68744
359.00	0.68158
359.25	0.67974
359.50	0.67165
359.75	0.66538
360.00	0.66159
360.25	0.65667
360.50	0.64752
360.75	0.64966
361.00	0.63748
361.25	0.63725
361.50	0.62753
361.75	0.62204
362.00	0.61776
362.25	0.60949
362.50	0.60611
362.75	0.59851
363.00	0.59388
363.25	0.58591
363.50	0.58348
363.75	0.57792
364.00	0.56941
364.25	0.56853
364.50	0.56246
364.75	0.55310
365.00	0.54667
365.25	0.54122
365.50	0.53618
365.75	0.53025
366.00	0.52634
366.25	0.51743
366.50	0.51648
366.75	0.50913
367.00	0.50476
367.25	0.49654
367.50	0.49274
367.75	0.48743
368.00	0.48104
368.25	0.47590
368.50	0.47175
368.75	0.46403
369.00	0.46207
369.25	0.45299
369.50	0.44957
369.75	0.44216
370.00	0.43746
370.25	0.43306
370.50	0.42920
370.75	0.42111
371.00	0.41455
371.25	0.41135
371.50	0.40505
371.75	0.40014
372.00	0.39473
372.25	0.38905
372.50	0.38401
372.75	0.37722
373.00	0.37975
373.25	0.37006
373.50	0.36703
373.75	0.36262
374.00	0.35856
374.25	0.35434
374.50	0.34619
374.75	0.34614
375.00	0.34296
375.25	0.34119
375.50	0.33592
375.75	0.33246
376.00	0.32315
376.25	0.31421
376.50	0.31088
376.75	0.30906
377.00	0.30422
377.25	0.29814
377.50	0.29194
377.75	0.28904
378.00	0.28131
378.25	0.27936
378.50	0.27640
378.75	0.27343
379.00	0.26710
379.25	0.26357
379.50	0.25766
379.75	0.25681
380.00	0.24938
380.25	0.24578
380.50	0.24445
380.75	0.23741
381.00	0.23363
381.25	0.23116
381.50	0.22317
381.75	0.22430
382.00	0.21907
382.25	0.21559
382.50	0.21172
382.75	0.20757
383.00	0.20415
383.25	0.20248
383.50	0.19698
383.75	0.19379
384.00	0.19078
384.25	0.18776
384.50	0.18495
384.75	0.18067
385.00	0.17597
385.25	0.17138
385.50	0.16861
385.75	0.16773
386.00	0.16268
386.25	0.16205
386.50	0.15798
386.75	0.15535
387.00	0.15362
387.25	0.15060
387.50	0.14726
387.75	0.14318
388.00	0.14183
388.25	0.14096
388.50	0.13603
388.75	0.13531
389.00	0.12958
389.25	0.12731
389.50	0.12592
389.75	0.12146
390.00	0.12020
390.25	0.11787
390.50	0.11634
390.75	0.11383
391.00	0.11339
391.25	0.10993
391.50	0.10662
391.75	0.10498
392.00	0.10351
392.25	0.10163
392.50	0.099022
392.75	0.097758
393.00	0.095225
393.25	0.093193
393.50	0.089411
393.75	0.091605
394.00	0.087424
394.25	0.086375
394.50	0.082039
394.75	0.081721
395.00	0.081249
395.25	0.078671
395.50	0.076632
395.75	0.076262
396.00	0.071978
396.25	0.069370
396.50	0.069238
396.75	0.067598
397.00	0.067125
397.25	0.067391
397.50	0.064104
397.75	0.062804
398.00	0.061710
398.25	0.061260
398.50	0.057197
398.75	0.059686
399.00	0.056377
399.25	0.054988
399.50	0.053644
399.75	0.053518
400.00	0.050009
400.25	0.051324
400.50	0.049064
400.75	0.049891
401.00	0.047727
401.25	0.047047
401.50	0.045045
401.75	0.043140
402.00	0.044196
402.25	0.043538
402.50	0.042423
402.75	0.041418
403.00	0.040414
403.25	0.039498
403.50	0.037562
403.75	0.037644
404.00	0.037777
404.25	0.038043
404.50	0.032177
404.75	0.034844
405.00	0.032850
405.25	0.032931
405.50	0.031077
405.75	0.031224
406.00	0.030419
406.25	0.030419
406.50	0.029016
406.75	0.028528
407.00	0.027191
407.25	0.026911
407.50	0.027383
407.75	0.027413
408.00	0.024598
408.25	0.026829
408.50	0.024465
408.75	0.024207
409.00	0.022183
409.25	0.024318
409.50	0.021267
409.75	0.020070
410.00	0.020602
410.25	0.019479
410.50	0.020595
410.75	0.020011
411.00	0.018874
411.25	0.020225
411.50	0.019686
411.75	0.019457
412.00	0.017226
412.25	0.017869
412.50	0.017980
412.75	0.015409
413.00	0.016399
413.25	0.014833
413.50	0.015298
413.75	0.016096
414.00	0.013525
414.25	0.013060
414.50	0.013681
414.75	0.014427
415.00	0.011708
415.25	0.012831
415.50	0.014752
415.75	0.013237
416.00	0.014973
416.25	0.012861
416.50	0.012779
416.75	0.011753
417.00	0.010659
417.25	0.011657
417.50	0.0096842
417.75	0.0086279
418.00	0.0093223
418.25	0.011826
418.50	0.010460
418.75	0.0096769
419.00	0.010608
419.25	0.0082807
419.50	0.0095291
419.75	0.011716
420.00	0.0078523
420.25	0.0093740
420.50	0.0085023
420.75	0.0093149
421.00	0.0069511
421.25	0.0074534
421.50	0.0070397
421.75	0.0075199
422.00	0.0070397
422.25	0.0084506
422.50	0.0061016
422.75	0.0078375
423.00	0.0072466
423.25	0.0060720
423.50	0.0081404
423.75	0.0059834
424.00	0.0085910
424.25	0.0056805
424.50	0.0082586
424.75	0.0046611
425.00	0.0057101
425.25	0.0051191
425.50	0.0052743
425.75	0.0056953
426.00	0.0055550
426.25	0.0039372
426.50	0.0067664
426.75	0.0049197
427.00	0.0055697
427.25	0.0060203
427.50	0.0053481
427.75	0.0044321
428.00	0.0046538
428.25	0.0043287
428.50	0.0062715
428.75	0.0043509
429.00	0.0034201
429.25	0.0026519
429.50	0.0025411
429.75	0.0042992
430.00	0.0041293
430.25	0.0040406
430.50	0.0041219
430.75	0.0046981
431.00	0.0047941
431.25	0.0033610
431.50	0.0041219
431.75	0.0046094
432.00	0.0048237
432.25	0.0037008
432.50	0.0026371
432.75	0.0032502
433.00	0.0025263
433.25	0.0042844
433.50	0.0037452
433.75	0.0020462
434.00	0.0046390
434.25	0.0031394
434.50	0.0039446
434.75	0.0032207
435.00	0.0043435
435.25	0.0044395
435.50	0.0051561
435.75	0.0035531
436.00	0.0031764
436.25	0.0030434
436.50	0.0021274
436.75	0.0046685
437.00	0.0045503
437.25	0.0025337
437.50	0.0036861
437.75	0.0042327
438.00	0.0051782
438.25	0.0022604
438.50	0.0042992
438.75	0.0010859
439.00	0.0024968
439.25	0.0057987
439.50	0.0033610
439.75	0.0028957
440.00	0.0039372
440.25	0.0036565
440.50	0.0034940
440.75	0.0027627
441.00	0.0035014
441.25	0.0030360
441.50	0.0035974
441.75	0.0023860
442.00	0.0041293
442.25	0.0021865
442.50	0.0031542
442.75	0.0019871
443.00	0.0028957
443.25	0.0029991
443.50	0.0027479
443.75	0.0035900
444.00	0.0031542
444.25	0.0019723
444.50	0.0027184
444.75	0.0031099
445.00	0.0020683
445.25	0.0021348
445.50	0.0038929
445.75	0.0013740
446.00	0.0023417
446.25	0.0036417
446.50	0.0019797
446.75	0.0037156
447.00	0.0034571
447.25	0.0030730
447.50	0.0015291
447.75	0.0026224
448.00	0.0023564
448.25	0.0014331
448.50	0.0034497
448.75	0.0026814
449.00	0.0026519
449.25	0.0033167
449.50	0.0037082
449.75	0.0023860
450.00	0.0010342
450.25	0.0022382
450.50	0.0021053
450.75	0.0032429
451.00	0.0020905
451.25	0.0021348
451.50	0.0025559
451.75	0.0028735
452.00	0.0024081
452.25	0.0039077
452.50	0.0022456
452.75	0.0032059
453.00	0.0039446
453.25	0.0024672
453.50	0.0028661
453.75	0.0046390
454.00	0.0029031
454.25	0.0021939
454.50	0.0011006
454.75	0.0027775
455.00	0.0031838
455.25	0.0029474
455.50	0.0032207
455.75	0.0046316
456.00	0.0035753
456.25	0.0035974
456.50	0.0014774
456.75	0.0016694
457.00	0.0014478
457.25	0.0039815
457.50	0.0015660
457.75	0.0019723
458.00	0.0010933
458.25	0.0020831
458.50	0.0012336
458.75	0.0022604
459.00	0.0019132
459.25	0.0023269
459.50	0.0042253
459.75	0.0023269
460.00	0.0034497
460.25	0.0031247
460.50	0.0045060
460.75	0.0020905
461.00	0.0014183
461.25	0.0045208
461.50	0.0019501
461.75	0.0029326
462.00	0.0037230
462.25	0.0015291
462.50	0.0013001
462.75	0.0026002
463.00	0.0029326
463.25	0.0027479
463.50	0.0040111
463.75	0.00031764
464.00	0.0027627
464.25	0.0013592
464.50	0.0011893
464.75	0.0026962
465.00	0.0015143
465.25	0.0040480
465.50	0.0026888
465.75	0.0039372
466.00	0.0033758
466.25	0.0022456
466.50	0.0012853
466.75	0.00089382
467.00	0.0025263
467.25	0.0027627
467.50	0.0027701
467.75	0.0030065
468.00	0.0034792
468.25	0.0035457
468.50	0.0025485
468.75	0.0028144
469.00	0.0019058
469.25	0.0022161
469.50	0.0028735
469.75	0.0039003
470.00	0.0046316
470.25	0.0012927
470.50	0.0036122
470.75	0.0034792
471.00	0.0017950
471.25	0.0029917
471.50	0.0026962
471.75	0.0020388
472.00	0.0023564
472.25	0.0026814
472.50	0.0014331
472.75	0.0023564
473.00	0.0035974
473.25	0.0027996
473.50	0.0027849
473.75	0.00074608
474.00	0.0034866
474.25	0.0026445
474.50	0.0026445
474.75	0.0011302
475.00	0.0024007
475.25	0.0044617
475.50	0.0018541
475.75	0.0031247
476.00	0.00029548
476.25	0.0048680
476.50	0.0018172
476.75	0.0019575
477.00	0.0026150
477.25	0.0021053
477.50	0.0042179
477.75	0.0016916
478.00	0.0030582
478.25	0.0019797
478.50	0.0022013
478.75	0.0030212
479.00	0.0027996
479.25	0.0043657
479.50	0.0042253
479.75	0.0031838
480.00	0.0016325
480.25	0.0022235
480.50	0.0023638
480.75	0.00087904
481.00	0.0040480
481.25	0.0020166
481.50	0.0016694
481.75	0.0038190
482.00	0.0034349
482.25	0.0018320
482.50	0.0021127
482.75	0.0032946
483.00	0.0014774
483.25	0.0034866
483.50	0.0026150
483.75	0.0015586
484.00	0.0035236
484.25	0.0027479
484.50	0.0020314
484.75	0.0025115
485.00	0.0025411
485.25	0.0036565
485.50	0.0031394
485.75	0.0025263
486.00	0.0034571
486.25	0.0034201
486.50	0.0022707
486.75	0.0025559
487.00	0.0015232
487.25	0.0020609
487.50	0.0025928
487.75	0.0015586
488.00	0.0022235
488.25	0.0011524
488.50	0.0031764
488.75	0.0017655
489.00	0.0031911
489.25	0.0040997
489.50	0.0020905
489.75	0.0024672
490.00	0.0028661
490.25	0.0029622
490.50	0.0017655
490.75	0.0019945
491.00	0.0017064
491.25	0.0019280
491.50	0.0021348
491.75	0.0020536
492.00	0.0032872
492.25	0.0022752
492.50	0.0018837
492.75	0.0011302
493.00	0.0022161
493.25	0.0037895
493.50	0.0027184
493.75	0.0020683
494.00	0.0019723
494.25	0.0031321
494.50	0.0022235
494.75	0.0014774
495.00	0.0028218
495.25	0.0023786
495.50	0.0030360
495.75	0.0015143
496.00	0.0025263
496.25	0.0039077
496.50	0.0030951
496.75	0.0039594
497.00	0.00098246
497.25	0.0031542
497.50	0.0029548
497.75	0.0043583
498.00	0.0013592
498.25	0.0026371
498.50	0.0033610
498.75	0.0010268
499.00	0.0024598
499.25	0.0018393
499.50	0.0037378
499.75	0.0011080
500.00	0.0026371
